date,anomaly_c,z
1880-01,-0.73,-1.49334
1880-02,-0.752,-1.53565
1880-03,-0.67,-1.37794
1880-04,-0.593,-1.22984
1880-05,-0.739,-1.51065
1880-06,-0.756,-1.54335
1880-07,-0.74026,-1.51308
1880-08,-0.724,-1.4818
1880-09,-0.841,-1.70683
1880-10,-0.766,-1.56258
1880-11,-0.839,-1.70298
1880-12,-0.82,-1.66644
1881-01,-0.74,-1.51257
1881-02,-0.79727,-1.62272
1881-03,-0.849,-1.72221
1881-04,-0.749,-1.52988
1881-05,-0.791,-1.61066
1881-06,-0.702,-1.43949
1881-07,-0.824,-1.67413
1881-08,-0.888,-1.79722
1881-09,-0.676,-1.38948
1881-10,-0.82,-1.66644
1881-11,-0.786,-1.60105
1881-12,-0.886,-1.79338
1882-01,-0.7985,-1.62509
1882-02,-0.711,-1.4568
1882-03,-0.793,-1.61451
1882-04,-0.663,-1.36448
1882-05,-0.75,-1.53181
1882-06,-0.74,-1.51257
1882-07,-0.789,-1.60681
1882-08,-0.62,-1.28177
1882-09,-0.783,-1.59528
1882-10,-0.873,-1.76837
1882-11,-0.715,-1.46449
1882-12,-0.859,-1.74145
1883-01,-0.719,-1.47218
1883-02,-0.866,-1.75491
1883-03,-0.8,-1.62797
1883-04,-0.67,-1.37794
1883-05,-0.63,-1.30101
1883-06,-0.692,-1.42025
1883-07,-0.74,-1.51257
1883-08,-0.928,-1.87416
1883-09,-1.04,-2.08957
1883-10,-0.985,-1.98379
1883-11,-0.96,-1.9357
1883-12,-0.816,-1.65874
1884-01,-0.898,-1.81646
1884-02,-1.04,-2.08957
1884-03,-0.854,-1.73183
1884-04,-0.89364,-1.80807
1884-05,-0.932,-1.88185
1884-06,-0.85,-1.72414
1884-07,-0.85934,-1.74211
1884-08,-0.869,-1.76068
1884-09,-1.028,-2.06649
1884-10,-0.992,-1.99725
1884-11,-0.933,-1.88377
1884-12,-0.862,-1.74722
1885-01,-0.753,-1.53758
1885-02,-0.75563,-1.54263
1885-03,-0.758,-1.54719
1885-04,-0.758,-1.54719
1885-05,-0.603,-1.24908
1885-06,-0.65992,-1.35855
1885-07,-0.715,-1.46449
1885-08,-0.653,-1.34524
1885-09,-0.722,-1.47795
1885-10,-0.808,-1.64336
1885-11,-0.70738,-1.44983
1885-12,-0.61,-1.26254
1886-01,-0.71,-1.45487
1886-02,-0.553,-1.15291
1886-03,-0.869,-1.76068
1886-04,-0.586,-1.21638
1886-05,-0.65,-1.33947
1886-06,-0.699,-1.43372
1886-07,-0.691,-1.41833
1886-08,-0.882,-1.78568
1886-09,-0.758,-1.54719
1886-10,-0.718,-1.47026
1886-11,-0.62,-1.28177
1886-12,-0.761,-1.55296
1887-01,-0.758,-1.54719
1887-02,-0.708,-1.45103
1887-03,-0.575,-1.19522
1887-04,-0.615,-1.27216
1887-05,-0.61893,-1.27972
1887-06,-0.623,-1.28754
1887-07,-0.68,-1.39717
1887-08,-0.635,-1.31062
1887-09,-0.786,-1.60105
1887-10,-0.762,-1.55489
1887-11,-0.759,-1.54912
1887-12,-0.826,-1.67798
1888-01,-0.659,-1.35678
1888-02,-0.636,-1.31255
1888-03,-0.638,-1.31639
1888-04,-0.69441,-1.42489
1888-05,-0.749,-1.52988
1888-06,-0.69,-1.41641
1888-07,-0.705,-1.44526
1888-08,-0.766,-1.56258
1888-09,-0.7289,-1.49123
1888-10,-0.693,-1.42218
1888-11,-0.688,-1.41256
1888-12,-0.684,-1.40487
1889-01,-0.652,-1.34332
1889-02,-0.653,-1.34524
1889-03,-0.781,-1.59143
1889-04,-0.622,-1.28562
1889-05,-0.621,-1.2837
1889-06,-0.446,-0.94711
1889-07,-0.683,-1.40294
1889-08,-0.67,-1.37794
1889-09,-0.712,-1.45872
1889-10,-0.808,-1.64336
1889-11,-0.616,-1.27408
1889-12,-0.628,-1.29716
1890-01,-0.6685,-1.37505
1890-02,-0.709,-1.45295
1890-03,-0.505,-1.06059
1890-04,-0.722,-1.47795
1890-05,-0.568,-1.18176
1890-06,-0.46,-0.97404
1890-07,-0.736,-1.50488
1890-08,-0.726,-1.48565
1890-09,-0.69,-1.41641
1890-10,-0.744,-1.52027
1890-11,-0.821,-1.66836
1890-12,-0.672,-1.38179
1891-01,-0.736,-1.50488
1891-02,-0.588,-1.22023
1891-03,-0.68,-1.39717
1891-04,-0.475,-1.00289
1891-05,-0.67,-1.37794
1891-06,-0.648,-1.33563
1891-07,-0.581,-1.20676
1891-08,-0.6255,-1.29235
1891-09,-0.67,-1.37794
1891-10,-0.74131,-1.51509
1891-11,-0.815,-1.65682
1891-12,-0.652,-1.34332
1892-01,-0.62,-1.28177
1892-02,-0.553,-1.15291
1892-03,-0.695,-1.42602
1892-04,-0.694,-1.4241
1892-05,-0.64187,-1.32383
1892-06,-0.588,-1.22023
1892-07,-0.616,-1.27408
1892-08,-0.632,-1.30485
1892-09,-0.64877,-1.33711
1892-10,-0.665,-1.36832
1892-11,-0.652,-1.34332
1892-12,-0.714,-1.46257
1893-01,-0.481,-1.01443
1893-02,-0.581,-1.20676
1893-03,-0.681,-1.3991
1893-04,-0.525,-1.09906
1893-05,-0.662,-1.36255
1893-06,-0.59644,-1.23646
1893-07,-0.533,-1.11444
1893-08,-0.715,-1.46449
1893-09,-0.59,-1.22407
1893-10,-0.64,-1.32024
1893-11,-0.599,-1.24138
1893-12,-0.494,-1.03943
1894-01,-0.64,-1.32024
1894-02,-0.654,-1.34717
1894-03,-0.64403,-1.328
1894-04,-0.633,-1.30678
1894-05,-0.579,-1.20292
1894-06,-0.563,-1.17214
1894-07,-0.593,-1.22984
1894-08,-0.573,-1.19138
1894-09,-0.655,-1.34909
1894-10,-0.546,-1.13945
1894-11,-0.48095,-1.01433
1894-12,-0.418,-0.89326
1895-01,-0.559,-1.16445
1895-02,-0.652,-1.34332
1895-03,-0.65,-1.33947
1895-04,-0.518,-1.08559
1895-05,-0.581,-1.20676
1895-06,-0.523,-1.09521
1895-07,-0.566,-1.17791
1895-08,-0.634,-1.3087
1895-09,-0.714,-1.46257
1895-10,-0.69728,-1.4304
1895-11,-0.68,-1.39717
1895-12,-0.6318,-1.30447
1896-01,-0.582,-1.20869
1896-02,-0.673,-1.38371
1896-03,-0.54,-1.12791
1896-04,-0.516,-1.08175
1896-05,-0.623,-1.28754
1896-06,-0.56,-1.16637
1896-07,-0.63328,-1.30731
1896-08,-0.709,-1.45295
1896-09,-0.61,-1.26254
1896-10,-0.596,-1.23561
1896-11,-0.55,-1.14714
1896-12,-0.53,-1.10867
1897-01,-0.584,-1.21253
1897-02,-0.638,-1.31639
1897-03,-0.502,-1.05482
1897-04,-0.495,-1.04136
1897-05,-0.5,-1.05097
1897-06,-0.51931,-1.08812
1897-07,-0.538,-1.12406
1897-08,-0.52,-1.08944
1897-09,-0.548,-1.14329
1897-10,-0.579,-1.20292
1897-11,-0.648,-1.33563
1897-12,-0.543,-1.13368
1898-01,-0.64,-1.32024
1898-02,-0.571,-1.18753
1898-03,-0.54632,-1.14007
1898-04,-0.519,-1.08752
1898-05,-0.346,-0.75478
1898-06,-0.698,-1.43179
1898-07,-0.518,-1.08559
1898-08,-0.726,-1.48565
1898-09,-0.652,-1.34332
1898-10,-0.533,-1.11444
1898-11,-0.61,-1.26254
1898-12,-0.68,-1.39717
1899-01,-0.585,-1.21446
1899-02,-0.49,-1.03174
1899-03,-0.581,-1.20676
1899-04,-0.498,-1.04713
1899-05,-0.52,-1.08944
1899-06,-0.59,-1.22407
1899-07,-0.391,-0.84133
1899-08,-0.536,-1.12021
1899-09,-0.766,-1.56258
1899-10,-0.595,-1.23369
1899-11,-0.655,-1.34909
1899-12,-0.515,-1.07982
1900-01,-0.62,-1.28177
1900-02,-0.54,-1.12791
1900-03,-0.472,-0.99712
1900-04,-0.435,-0.92596
1900-05,-0.606,-1.25485
1900-06,-0.59787,-1.23921
1900-07,-0.59,-1.22407
1900-08,-0.628,-1.29716
1900-09,-0.452,-0.95865
1900-10,-0.57003,-1.18567
1900-11,-0.692,-1.42025
1900-12,-0.499,-1.04905
1901-01,-0.38,-0.82017
1901-02,-0.438,-0.93173
1901-03,-0.623,-1.28754
1901-04,-0.60649,-1.25579
1901-05,-0.59051,-1.22505
1901-06,-0.574,-1.1933
1901-07,-0.506,-1.06251
1901-08,-0.503,-1.05674
1901-09,-0.66,-1.35871
1901-10,-0.593,-1.22984
1901-11,-0.84,-1.7049
1901-12,-0.644,-1.32793
1902-01,-0.556,-1.15868
1902-02,-0.61,-1.26254
1902-03,-0.36,-0.78171
1902-04,-0.598,-1.23946
1902-05,-0.524,-1.09713
1902-06,-0.496,-1.04328
1902-07,-0.415,-0.88749
1902-08,-0.67,-1.37794
1902-09,-0.479,-1.01058
1902-10,-0.58,-1.20484
1902-11,-0.649,-1.33755
1902-12,-0.514,-1.0779
1903-01,-0.51,-1.07021
1903-02,-0.548,-1.14329
1903-03,-0.475,-1.00289
1903-04,-0.504,-1.05867
1903-05,-0.47,-0.99327
1903-06,-0.443,-0.94134
1903-07,-0.393,-0.84518
1903-08,-0.643,-1.32601
1903-09,-0.391,-0.84133
1903-10,-0.48002,-1.01254
1903-11,-0.572,-1.18945
1903-12,-0.494,-1.03943
1904-01,-0.493,-1.03751
1904-02,-0.539,-1.12598
1904-03,-0.49,-1.03174
1904-04,-0.502,-1.05482
1904-05,-0.515,-1.07982
1904-06,-0.418,-0.89326
1904-07,-0.481,-1.01443
1904-08,-0.589,-1.22215
1904-09,-0.479,-1.01058
1904-10,-0.533,-1.11444
1904-11,-0.485,-1.02212
1904-12,-0.48,-1.01251
1905-01,-0.5015,-1.05386
1905-02,-0.523,-1.09521
1905-03,-0.4,-0.85864
1905-04,-0.403,-0.86441
1905-05,-0.459,-0.97212
1905-06,-0.466,-0.98558
1905-07,-0.4,-0.85864
1905-08,-0.45492,-0.96428
1905-09,-0.50985,-1.06991
1905-10,-0.563,-1.17214
1905-11,-0.556,-1.15868
1905-12,-0.432,-0.92019
1906-01,-0.428,-0.91249
1906-02,-0.403,-0.86441
1906-03,-0.345,-0.75286
1906-04,-0.44,-0.93557
1906-05,-0.393,-0.84518
1906-06,-0.489,-1.02982
1906-07,-0.50572,-1.06198
1906-08,-0.523,-1.09521
1906-09,-0.523,-1.09521
1906-10,-0.489,-1.02982
1906-11,-0.594,-1.23177
1906-12,-0.342,-0.74709
1907-01,-0.564,-1.17407
1907-02,-0.555,-1.15676
1907-03,-0.46625,-0.98607
1907-04,-0.368,-0.79709
1907-05,-0.39,-0.83941
1907-06,-0.404,-0.86633
1907-07,-0.479,-1.01058
1907-08,-0.574,-1.1933
1907-09,-0.514,-1.0779
1907-10,-0.58,-1.20484
1907-11,-0.44,-0.93557
1907-12,-0.511,-1.07213
1908-01,-0.539,-1.12598
1908-02,-0.473,-0.99904
1908-03,-0.395,-0.84902
1908-04,-0.465,-0.98366
1908-05,-0.44484,-0.94487
1908-06,-0.424,-0.9048
1908-07,-0.448,-0.95096
1908-08,-0.532,-1.11252
1908-09,-0.55,-1.14714
1908-10,-0.5,-1.05097
1908-11,-0.623,-1.28754
1908-12,-0.601,-1.24523
1909-01,-0.52,-1.08944
1909-02,-0.454,-0.9625
1909-03,-0.42128,-0.89957
1909-04,-0.38506,-0.8299
1909-05,-0.35,-0.76247
1909-06,-0.446,-0.94711
1909-07,-0.459,-0.97212
1909-08,-0.562,-1.17022
1909-09,-0.54472,-1.13699
1909-10,-0.528,-1.10483
1909-11,-0.471,-0.9952
1909-12,-0.544,-1.1356
1910-01,-0.41,-0.87787
1910-02,-0.304,-0.674
1910-03,-0.33532,-0.73424
1910-04,-0.37,-0.80094
1910-05,-0.35,-0.76247
1910-06,-0.455,-0.96442
1910-07,-0.429,-0.91442
1910-08,-0.4545,-0.96346
1910-09,-0.48,-1.01251
1910-10,-0.556,-1.15868
1910-11,-0.485,-1.02212
1910-12,-0.428,-0.91249
1911-01,-0.325,-0.71439
1911-02,-0.339,-0.74132
1911-03,-0.224,-0.52013
1911-04,-0.45,-0.95481
1911-05,-0.325,-0.71439
1911-06,-0.4,-0.85864
1911-07,-0.261,-0.5913
1911-08,-0.525,-1.09906
1911-09,-0.545,-1.13752
1911-10,-0.532,-1.11252
1911-11,-0.646,-1.33178
1911-12,-0.499,-1.04905
1912-01,-0.492,-1.03559
1912-02,-0.393,-0.84518
1912-03,-0.359,-0.77978
1912-04,-0.228,-0.52783
1912-05,-0.308,-0.68169
1912-06,-0.448,-0.95096
1912-07,-0.498,-1.04713
1912-08,-0.411,-0.8798
1912-09,-0.573,-1.19138
1912-10,-0.33,-0.72401
1912-11,-0.371,-0.80286
1912-12,-0.484,-1.0202
1913-01,-0.558,-1.16253
1913-02,-0.286,-0.63938
1913-03,-0.385,-0.82979
1913-04,-0.269,-0.60668
1913-05,-0.501,-1.0529
1913-06,-0.439,-0.93365
1913-07,-0.415,-0.88749
1913-08,-0.436,-0.92788
1913-09,-0.493,-1.03751
1913-10,-0.51611,-1.08197
1913-11,-0.54,-1.12791
1913-12,-0.47115,-0.99548
1914-01,-0.4,-0.85864
1914-02,-0.343,-0.74901
1914-03,-0.308,-0.68169
1914-04,-0.39846,-0.85568
1914-05,-0.486,-1.02405
1914-06,-0.278,-0.62399
1914-07,-0.378,-0.81633
1914-08,-0.489,-1.02982
1914-09,-0.322,-0.70862
1914-10,-0.443,-0.94134
1914-11,-0.35,-0.76247
1914-12,-0.42,-0.89711
1915-01,-0.235,-0.54129
1915-02,-0.233,-0.53744
1915-03,-0.374,-0.80863
1915-04,-0.269,-0.60668
1915-05,-0.301,-0.66823
1915-06,-0.261,-0.5913
1915-07,-0.471,-0.9952
1915-08,-0.363,-0.78748
1915-09,-0.351,-0.7644
1915-10,-0.582,-1.20869
1915-11,-0.529,-1.10675
1915-12,-0.578,-1.20099
1916-01,-0.411,-0.8798
1916-02,-0.306,-0.67785
1916-03,-0.224,-0.52013
1916-04,-0.33,-0.72401
1916-05,-0.212,-0.49705
1916-06,-0.47,-0.99327
1916-07,-0.52,-1.08944
1916-08,-0.412,-0.88172
1916-09,-0.42318,-0.90322
1916-10,-0.434,-0.92403
1916-11,-0.589,-1.22215
1916-12,-0.412,-0.88172
1917-01,-0.483,-1.01828
1917-02,-0.299,-0.66438
1917-03,-0.304,-0.674
1917-04,-0.33907,-0.74144
1917-05,-0.373,-0.80671
1917-06,-0.37554,-0.8116
1917-07,-0.378,-0.81633
1917-08,-0.436,-0.92788
1917-09,-0.494,-1.03943
1917-10,-0.47482,-1.00254
1917-11,-0.455,-0.96442
1917-12,-0.46,-0.97404
1918-01,-0.429,-0.91442
1918-02,-0.398,-0.85479
1918-03,-0.37,-0.80094
1918-04,-0.411,-0.8798
1918-05,-0.164,-0.40473
1918-06,-0.336,-0.73555
1918-07,-0.419,-0.89518
1918-08,-0.37,-0.80094
1918-09,-0.413,-0.88364
1918-10,-0.428,-0.91249
1918-11,-0.353,-0.76824
1918-12,-0.323,-0.71054
1919-01,-0.4,-0.85864
1919-02,-0.378,-0.81633
1919-03,-0.334,-0.7317
1919-04,-0.3838,-0.82749
1919-05,-0.432,-0.92019
1919-06,-0.219,-0.51052
1919-07,-0.221,-0.51436
1919-08,-0.396,-0.85095
1919-09,-0.38533,-0.83042
1919-10,-0.375,-0.81056
1919-11,-0.146,-0.37011
1919-12,-0.283,-0.63361
1920-01,-0.36,-0.78171
1920-02,-0.398,-0.85479
1920-03,-0.43,-0.91634
1920-04,-0.278,-0.62399
1920-05,-0.361,-0.78363
1920-06,-0.431,-0.91826
1920-07,-0.393,-0.84518
1920-08,-0.452,-0.95865
1920-09,-0.248,-0.56629
1920-10,-0.3139,-0.69304
1920-11,-0.382,-0.82402
1920-12,-0.38135,-0.82277
1921-01,-0.38067,-0.82147
1921-02,-0.38,-0.82017
1921-03,-0.17,-0.41627
1921-04,-0.241,-0.55283
1921-05,-0.373,-0.80671
1921-06,-0.322,-0.70862
1921-07,-0.401,-0.86056
1921-08,-0.35,-0.76247
1921-09,-0.299,-0.66438
1921-10,-0.38949,-0.83843
1921-11,-0.483,-1.01828
1921-12,-0.31,-0.68554
1922-01,-0.378,-0.81633
1922-02,-0.339,-0.74132
1922-03,-0.328,-0.72016
1922-04,-0.342,-0.74709
1922-05,-0.275,-0.61822
1922-06,-0.363,-0.78748
1922-07,-0.299,-0.66438
1922-08,-0.349,-0.76055
1922-09,-0.381,-0.8221
1922-10,-0.441,-0.9375
1922-11,-0.41,-0.87787
1922-12,-0.281,-0.62976
1923-01,-0.275,-0.61822
1923-02,-0.368,-0.79709
1923-03,-0.263,-0.59514
1923-04,-0.203,-0.47974
1923-05,-0.402,-0.86249
1923-06,-0.243,-0.55668
1923-07,-0.363,-0.78748
1923-08,-0.289,-0.64515
1923-09,-0.413,-0.88364
1923-10,-0.44595,-0.94702
1923-11,-0.48,-1.01251
1923-12,-0.33,-0.72401
1924-01,-0.284,-0.63553
1924-02,-0.24525,-0.561
1924-03,-0.209,-0.49128
1924-04,-0.385,-0.82979
1924-05,-0.263,-0.59514
1924-06,-0.373,-0.80671
1924-07,-0.352,-0.76632
1924-08,-0.32,-0.70477
1924-09,-0.41,-0.87787
1924-10,-0.378,-0.81633
1924-11,-0.259,-0.58745
1924-12,-0.37,-0.80094
1925-01,-0.228,-0.52783
1925-02,-0.21854,-0.50964
1925-03,-0.21,-0.49321
1925-04,-0.13,-0.33934
1925-05,-0.445,-0.94519
1925-06,-0.329,-0.72208
1925-07,-0.243,-0.55668
1925-08,-0.33,-0.72401
1925-09,-0.301,-0.66823
1925-10,-0.385,-0.82979
1925-11,-0.322,-0.70862
1925-12,-0.322,-0.70862
1926-01,-0.191,-0.45666
1926-02,-0.238,-0.54706
1926-03,-0.212,-0.49705
1926-04,-0.264,-0.59707
1926-05,-0.276,-0.62015
1926-06,-0.289,-0.64515
1926-07,-0.25,-0.57014
1926-08,-0.34,-0.74324
1926-09,-0.3,-0.66631
1926-10,-0.16,-0.39704
1926-11,-0.19024,-0.45521
1926-12,-0.21951,-0.5115
1927-01,-0.24976,-0.56967
1927-02,-0.28,-0.62784
1927-03,-0.391,-0.84133
1927-04,-0.302,-0.67015
1927-05,-0.29145,-0.64986
1927-06,-0.28055,-0.6289
1927-07,-0.27,-0.60861
1927-08,-0.158,-0.39319
1927-09,-0.284,-0.63553
1927-10,-0.26334,-0.59581
1927-11,-0.242,-0.55475
1927-12,-0.24298,-0.55665
1928-01,-0.244,-0.5586
1928-02,-0.175,-0.42589
1928-03,-0.336,-0.73555
1928-04,-0.2613,-0.59186
1928-05,-0.189,-0.45282
1928-06,-0.27,-0.60861
1928-07,-0.21,-0.49321
1928-08,-0.1,-0.28164
1928-09,-0.285,-0.63746
1928-10,-0.285,-0.63746
1928-11,-0.334,-0.7317
1928-12,-0.346,-0.75478
1929-01,-0.186,-0.44705
1929-02,-0.295,-0.65669
1929-03,-0.202,-0.47782
1929-04,-0.238,-0.54706
1929-05,-0.17,-0.41627
1929-06,-0.196,-0.46628
1929-07,-0.164,-0.40473
1929-08,-0.312,-0.68939
1929-09,-0.343,-0.74901
1929-10,-0.373,-0.80671
1929-11,-0.323,-0.71054
1929-12,-0.238,-0.54706
1930-01,-0.264,-0.59707
1930-02,-0.29,-0.64707
1930-03,-0.13,-0.33934
1930-04,-0.14626,-0.37062
1930-05,-0.162,-0.40089
1930-06,-0.062,-0.20855
1930-07,-0.299,-0.66438
1930-08,-0.36,-0.78171
1930-09,-0.421,-0.89903
1930-10,-0.32411,-0.71269
1930-11,-0.224,-0.52013
1930-12,-0.262,-0.59322
1931-01,-0.209,-0.49128
1931-02,-0.296,-0.65861
1931-03,0.009,-0.072
1931-04,-0.169,-0.41435
1931-05,-0.176,-0.42781
1931-06,-0.144,-0.36627
1931-07,-0.188,-0.45089
1931-08,-0.232,-0.53552
1931-09,-0.23403,-0.53943
1931-10,-0.236,-0.54321
1931-11,-0.115,-0.31049
1931-12,-0.139,-0.35665
1932-01,-0.094,-0.2701
1932-02,-0.236,-0.54321
1932-03,-0.255,-0.57976
1932-04,-0.178,-0.43166
1932-05,-0.17,-0.41627
1932-06,-0.104,-0.28933
1932-07,-0.351,-0.7644
1932-08,-0.118,-0.31626
1932-09,-0.27,-0.60861
1932-10,-0.3,-0.66631
1932-11,-0.34,-0.74324
1932-12,-0.369,-0.79902
1933-01,-0.145,-0.36819
1933-02,-0.179,-0.43358
1933-03,-0.269,-0.60668
1933-04,-0.261,-0.5913
1933-05,-0.191,-0.45666
1933-06,-0.048,-0.18163
1933-07,-0.226,-0.52398
1933-08,-0.35,-0.76247
1933-09,-0.266,-0.60091
1933-10,-0.274,-0.6163
1933-11,-0.461,-0.97596
1933-12,-0.23,-0.53167
1934-01,-0.218,-0.50859
1934-02,-0.118,-0.31626
1934-03,-0.01,-0.10854
1934-04,-0.06,-0.20471
1934-05,-0.175,-0.42589
1934-06,-0.259,-0.58745
1934-07,0.011,-0.06815
1934-08,-0.214,-0.5009
1934-09,-0.235,-0.54129
1934-10,-0.244,-0.5586
1934-11,-0.219,-0.51052
1934-12,-0.22687,-0.52565
1935-01,-0.235,-0.54129
1935-02,-0.21,-0.49321
1935-03,-0.15,-0.37781
1935-04,-0.18,-0.43551
1935-05,-0.2,-0.47397
1935-06,-0.152,-0.38165
1935-07,-0.205,-0.48359
1935-08,-0.088,-0.25856
1935-09,-0.438,-0.93173
1935-10,-0.144,-0.36627
1935-11,-0.124,-0.3278
1935-12,-0.371,-0.80286
1936-01,-0.277,-0.62207
1936-02,-0.183,-0.44128
1936-03,-0.1859,-0.44685
1936-04,-0.189,-0.45282
1936-05,-0.221,-0.51436
1936-06,-0.009,-0.10662
1936-07,-0.099,-0.27972
1936-08,-0.096,-0.27395
1936-09,-0.158,-0.39319
1936-10,-0.311,-0.68746
1936-11,-0.256,-0.58168
1936-12,-0.155,-0.38742
1937-01,-0.266,-0.60091
1937-02,-0.086,-0.25471
1937-03,-0.143,-0.36434
1937-04,-0.146,-0.37011
1937-05,-0.065,-0.21432
1937-06,-0.12954,-0.33846
1937-07,-0.192,-0.45859
1937-08,-0.095,-0.27202
1937-09,-0.291,-0.649
1937-10,-0.22461,-0.5213
1937-11,-0.156,-0.38935
1937-12,-0.209,-0.49128
1938-01,-0.2205,-0.5134
1938-02,-0.232,-0.53552
1938-03,-0.039,-0.16432
1938-04,-0.12,-0.32011
1938-05,-0.153,-0.38358
1938-06,-0.045,-0.17586
1938-07,-0.209,-0.49128
1938-08,-0.29,-0.64707
1938-09,-0.21987,-0.51219
1938-10,-0.152,-0.38165
1938-11,-0.295,-0.65669
1938-12,-0.033,-0.15278
1939-01,-0.314,-0.69323
1939-02,0.014,-0.06238
1939-03,-0.086,-0.25471
1939-04,-0.103,-0.28741
1939-05,-0.144,-0.36627
1939-06,-0.086,-0.25471
1939-07,-0.145,-0.36819
1939-08,-0.078,-0.23933
1939-09,-0.175,-0.42589
1939-10,-0.178,-0.43166
1939-11,-0.211,-0.49513
1939-12,-0.17,-0.41627
1940-01,-0.112,-0.30472
1940-02,-0.248,-0.56629
1940-03,-0.2,-0.47397
1940-04,-0.025,-0.13739
1940-05,-0.08,-0.24317
1940-06,-0.122,-0.32395
1940-07,-0.13,-0.33934
1940-08,-0.128,-0.33549
1940-09,-0.216,-0.50475
1940-10,-0.241,-0.55283
1940-11,-0.156,-0.38935
1940-12,-0.231,-0.5336
1941-01,-0.094,-0.2701
1941-02,-0.24,-0.55091
1941-03,0.001,-0.08738
1941-04,-0.02949,-0.14603
1941-05,-0.059,-0.20278
1941-06,-0.019,-0.12585
1941-07,0.012,-0.06623
1941-08,-0.064,-0.2124
1941-09,-0.31,-0.68554
1941-10,-0.271,-0.61053
1941-11,-0.211,-0.49513
1941-12,-0.14,-0.35857
1942-01,-0.075,-0.23356
1942-02,-0.148,-0.37396
1942-03,-0.056,-0.19701
1942-04,-0.124,-0.3278
1942-05,-0.118,-0.31626
1942-06,-0.199,-0.47205
1942-07,-0.185,-0.44512
1942-08,-0.243,-0.55668
1942-09,-0.23,-0.53167
1942-10,-0.074,-0.23163
1942-11,-0.23,-0.53167
1942-12,0.079,0.06264
1943-01,-0.066,-0.21625
1943-02,-0.065,-0.21432
1943-03,-0.129,-0.33742
1943-04,-0.1168,-0.31396
1943-05,-0.105,-0.29126
1943-06,-0.066,-0.21625
1943-07,-0.09846,-0.27868
1943-08,-0.132,-0.34319
1943-09,-0.05,-0.18547
1943-10,-0.204,-0.48167
1943-11,-0.143,-0.36434
1943-12,0.021,-0.04892
1944-01,-0.145,-0.36819
1944-02,0.076,0.05687
1944-03,0.007,-0.07584
1944-04,-0.09,-0.26241
1944-05,-0.03984,-0.16593
1944-06,0.012,-0.06623
1944-07,-0.04,-0.16624
1944-08,-0.1145,-0.30953
1944-09,-0.189,-0.45282
1944-10,-0.16,-0.39704
1944-11,-0.10969,-0.30028
1944-12,-0.061,-0.20663
1945-01,-0.07,-0.22394
1945-02,-0.03795,-0.1623
1945-03,-0.009,-0.10662
1945-04,0.017,-0.05661
1945-05,0.007,-0.07584
1945-06,0.031,-0.02968
1945-07,-0.013,-0.11431
1945-08,-0.07,-0.22394
1945-09,-0.126,-0.33165
1945-10,-0.26,-0.58937
1945-11,-0.085,-0.25279
1945-12,-0.083,-0.24894
1946-01,-0.1165,-0.31338
1946-02,-0.15,-0.37781
1946-03,-0.115,-0.31049
1946-04,0.06,0.02609
1946-05,-0.03,-0.14701
1946-06,0.01,-0.07007
1946-07,-0.066,-0.21625
1946-08,-0.09,-0.26241
1946-09,-0.035,-0.15662
1946-10,-0.16,-0.39704
1946-11,-0.101,-0.28356
1946-12,-0.126,-0.33165
1947-01,-0.098,-0.27779
1947-02,-0.062,-0.20855
1947-03,-0.001,-0.09123
1947-04,-0.049,-0.18355
1947-05,0.084,0.07225
1947-06,-0.106,-0.29318
1947-07,-0.073,-0.22971
1947-08,-0.07873,-0.24073
1947-09,-0.08446,-0.25175
1947-10,-0.09,-0.26241
1947-11,-0.14489,-0.36797
1947-12,-0.198,-0.47013
1948-01,-0.032,-0.15085
1948-02,0.044,-0.00468
1948-03,-0.001,-0.09123
1948-04,0.085,0.07418
1948-05,-0.048,-0.18163
1948-06,0.089,0.08187
1948-07,0.136,0.17227
1948-08,-0.101,-0.28356
1948-09,-0.125,-0.32972
1948-10,0.021,-0.04892
1948-11,0.039,-0.0143
1948-12,-0.11,-0.30087
1949-01,-0.076,-0.23548
1949-02,-0.039,-0.16432
1949-03,-0.105,-0.29126
1949-04,-0.063,-0.21048
1949-05,-0.076,-0.23548
1949-06,-0.075,-0.23356
1949-07,-0.04,-0.16624
1949-08,-0.043,-0.17201
1949-09,0.045,-0.00276
1949-10,-0.164,-0.40473
1949-11,0.002,-0.08546
1949-12,-0.075,-0.23356
1950-01,-0.036,-0.15855
1950-02,0.048,0.00301
1950-03,-0.08,-0.24317
1950-04,0.051,0.00878
1950-05,0.04411,-0.00446
1950-06,0.037,-0.01814
1950-07,-0.004,-0.097
1950-08,0.146,0.1915
1950-09,-0.119,-0.31818
1950-10,-0.12,-0.32011
1950-11,-0.116,-0.31241
1950-12,-0.09436,-0.27079
1951-01,-0.072,-0.22779
1951-02,0.099,0.1011
1951-03,0.137,0.17419
1951-04,0.04654,0.00021
1951-05,-0.041,-0.16816
1951-06,-0.05066,-0.18674
1951-07,-0.06,-0.20471
1951-08,-0.051,-0.1874
1951-09,-0.042,-0.17009
1951-10,-0.185,-0.44512
1951-11,0.068,0.04148
1951-12,0.107,0.11649
1952-01,0.08997,0.08373
1952-02,0.07293,0.05097
1952-03,0.057,0.02032
1952-04,0.07275,0.05062
1952-05,0.088,0.07995
1952-06,0.179,0.25497
1952-07,-0.02,-0.12777
1952-08,-0.094,-0.2701
1952-09,-0.158,-0.39319
1952-10,-0.112,-0.30472
1952-11,-0.048,-0.18163
1952-12,0.117,0.13572
1953-01,-0.042,-0.17009
1953-02,0.04,-0.01237
1953-03,0.04,-0.01237
1953-04,0.147,0.19342
1953-05,0.248,0.38768
1953-06,-0.014,-0.11623
1953-07,-0.034,-0.1547
1953-08,0.064,0.03379
1953-09,0.018,-0.05469
1953-10,0.105,0.11264
1953-11,0.012,-0.06623
1953-12,-0.045,-0.17586
1954-01,0.057,0.02032
1954-02,0.125,0.15111
1954-03,0.121,0.14342
1954-04,0.1,0.10303
1954-05,0.142,0.1838
1954-06,0.13,0.16073
1954-07,0.126,0.15303
1954-08,0.04,-0.01237
1954-09,-0.04,-0.16624
1954-10,-0.02,-0.12777
1954-11,0.072,0.04917
1954-12,-0.071,-0.22586
1955-01,0.05,0.00686
1955-02,0.015,-0.06046
1955-03,0.068,0.04148
1955-04,0.175,0.24727
1955-05,0.08,0.06456
1955-06,0.054,0.01455
1955-07,-0.083,-0.24894
1955-08,0.061,0.02802
1955-09,0.036,-0.02007
1955-10,0.151,0.20111
1955-11,-0.039,-0.16432
1955-12,0.02,-0.05084
1956-01,0.051,0.00878
1956-02,0.18,0.25689
1956-03,0.14423,0.1881
1956-04,0.106,0.11457
1956-05,0.126,0.15303
1956-06,0.075,0.05494
1956-07,0.001,-0.08738
1956-08,0.041,-0.01045
1956-09,0.081,0.06648
1956-10,-0.093,-0.26818
1956-11,0.007,-0.07584
1956-12,-0.04,-0.16624
1957-01,0.137,0.17419
1957-02,-0.054,-0.19317
1957-03,0.042,-0.00853
1957-04,0.124,0.14919
1957-05,0.214,0.32228
1957-06,0.066,0.03763
1957-07,0.002,-0.08546
1957-08,0.17,0.23766
1957-09,-0.111,-0.3028
1957-10,-0.18,-0.43551
1957-11,0.042,-0.00853
1957-12,-0.014,-0.11623
1958-01,-0.03,-0.14701
1958-02,0.135,0.17034
1958-03,0.117,0.13572
1958-04,0.059,0.02417
1958-05,0.10425,0.11119
1958-06,0.151,0.20111
1958-07,0.109,0.12034
1958-08,0.025,-0.04122
1958-09,0.16,0.21842
1958-10,-0.076,-0.23548
1958-11,-0.04703,-0.17977
1958-12,-0.019,-0.12585
1959-01,0.059,0.02417
1959-02,0.108,0.11841
1959-03,0.088,0.07995
1959-04,0.14,0.17996
1959-05,0.009,-0.072
1959-06,0.207,0.30882
1959-07,0.061,0.02802
1959-08,0.13,0.16073
1959-09,0.054,0.01455
1959-10,0.057,0.02032
1959-11,0.074,0.05302
1959-12,0.08,0.06456
1960-01,0.124,0.14919
1960-02,0.205,0.30497
1960-03,0.134,0.16842
1960-04,0.182,0.26074
1960-05,0.11,0.12226
1960-06,0.218,0.32998
1960-07,0.024,-0.04315
1960-08,0.027,-0.03738
1960-09,0.03,-0.03161
1960-10,-0.084,-0.25087
1960-11,0.049,0.00494
1960-12,0.0,-0.08931
1961-01,0.151,0.20111
1961-02,0.057,0.02032
1961-03,0.09,0.08379
1961-04,-0.015,-0.11816
1961-05,0.094,0.09149
1961-06,-0.081,-0.2451
1961-07,0.02031,-0.05024
1961-08,0.125,0.15111
1961-09,0.11,0.12226
1961-10,0.075,0.05494
1961-11,-0.028,-0.14316
1961-12,0.064,0.03379
1962-01,0.094,0.09149
1962-02,0.18069,0.25823
1962-03,0.259,0.40883
1962-04,0.217,0.32805
1962-05,0.12,0.14149
1962-06,0.126,0.15303
1962-07,0.116,0.1338
1962-08,-0.088,-0.25856
1962-09,0.038,-0.01622
1962-10,-0.003,-0.09508
1962-11,0.02698,-0.03741
1962-12,0.056,0.0184
1963-01,0.248,0.38768
1963-02,0.182,0.26074
1963-03,0.104,0.11072
1963-04,0.2,0.29536
1963-05,0.26,0.41076
1963-06,0.208,0.31074
1963-07,0.115,0.13188
1963-08,0.034,-0.02391
1963-09,0.124,0.14919
1963-10,0.094,0.09149
1963-11,0.142,0.1838
1963-12,0.14,0.17996
1964-01,0.199,0.29343
1964-02,0.098,0.09918
1964-03,0.265,0.42037
1964-04,0.18,0.25689
1964-05,0.328,0.54154
1964-06,0.089,0.08187
1964-07,0.259,0.40883
1964-08,0.112,0.12611
1964-09,0.027,-0.03738
1964-10,0.034,-0.02391
1964-11,0.055,0.01648
1964-12,0.134,0.16842
1965-01,0.167,0.23189
1965-02,0.105,0.11264
1965-03,0.169,0.23573
1965-04,0.35,0.58386
1965-05,0.311,0.50885
1965-06,0.19,0.27612
1965-07,0.134,0.16842
1965-08,0.116,0.1338
1965-09,0.138,0.17611
1965-10,0.002,-0.08546
1965-11,0.07,0.04533
1965-12,-0.023,-0.13354
1966-01,0.168,0.23381
1966-02,0.21863,0.3312
1966-03,0.26437,0.41916
1966-04,0.315,0.51654
1966-05,0.085,0.07418
1966-06,0.048,0.00301
1966-07,0.159,0.2165
1966-08,0.201,0.29728
1966-09,0.234,0.36075
1966-10,0.057,0.02032
1966-11,0.188,0.27228
1966-12,0.118,0.13765
1967-01,0.179,0.25497
1967-02,0.24,0.37229
1967-03,0.244,0.37998
1967-04,0.07,0.04533
1967-05,0.311,0.50885
1967-06,0.286,0.46076
1967-07,0.102,0.10687
1967-08,0.159,0.2165
1967-09,0.15,0.19919
1967-10,0.125,0.15111
1967-11,0.068,0.04148
1967-12,0.077,0.05879
1968-01,0.155,0.20881
1968-02,0.277,0.44345
1968-03,0.246,0.38383
1968-04,0.18,0.25689
1968-05,0.266,0.4223
1968-06,-0.042,-0.17009
1968-07,-0.02184,-0.13131
1968-08,-0.001,-0.09123
1968-09,0.092,0.08764
1968-10,0.025,-0.04122
1968-11,0.019,-0.05276
1968-12,0.234,0.36075
1969-01,0.13,0.16073
1969-02,0.221,0.33575
1969-03,0.209,0.31267
1969-04,0.258,0.40691
1969-05,0.22,0.33382
1969-06,0.094,0.09149
1969-07,0.252,0.39537
1969-08,0.109,0.12034
1969-09,0.007,-0.07584
1969-10,0.091,0.08572
1969-11,0.25,0.39152
1969-12,0.22,0.33382
1970-01,0.15,0.19919
1970-02,0.176,0.2492
1970-03,0.198,0.29151
1970-04,0.398,0.67618
1970-05,0.257,0.40499
1970-06,0.24,0.37229
1970-07,0.268,0.42614
1970-08,0.181,0.25881
1970-09,0.124,0.14919
1970-10,0.12,0.14149
1970-11,0.141,0.18188
1970-12,0.16,0.21842
1971-01,0.251,0.39345
1971-02,0.22,0.33382
1971-03,0.297,0.48192
1971-04,0.24,0.37229
1971-05,0.247,0.38575
1971-06,0.23251,0.35789
1971-07,0.21849,0.33092
1971-08,0.204,0.30305
1971-09,0.239,0.37037
1971-10,-0.078,-0.23933
1971-11,0.328,0.54154
1971-12,0.17,0.23766
1972-01,0.296,0.48
1972-02,0.15,0.19919
1972-03,0.302,0.49154
1972-04,0.176,0.2492
1972-05,0.205,0.30497
1972-06,0.391,0.66271
1972-07,0.199,0.29343
1972-08,0.208,0.31074
1972-09,0.24,0.37229
1972-10,0.208,0.31074
1972-11,0.188,0.27228
1972-12,0.224,0.34152
1973-01,0.232,0.3569
1973-02,0.24,0.37229
1973-03,0.28,0.44922
1973-04,0.359,0.60117
1973-05,0.358,0.59924
1973-06,0.348,0.58001
1973-07,0.28,0.44922
1973-08,0.114,0.12995
1973-09,0.319,0.52423
1973-10,0.091,0.08572
1973-11,0.214,0.32228
1973-12,0.149,0.19727
1974-01,0.231,0.35498
1974-02,0.289,0.46653
1974-03,0.30371,0.49483
1974-04,0.32,0.52616
1974-05,0.41,0.69926
1974-06,0.31548,0.51746
1974-07,0.224,0.34152
1974-08,0.297,0.48192
1974-09,0.19638,0.28839
1974-10,0.099,0.1011
1974-11,0.19098,0.27802
1974-12,0.28,0.44922
1975-01,0.227,0.34729
1975-02,0.387,0.65502
1975-03,0.284,0.45692
1975-04,0.314,0.51462
1975-05,0.285,0.45884
1975-06,0.28,0.44922
1975-07,0.20082,0.29693
1975-08,0.119,0.13957
1975-09,0.344,0.57232
1975-10,0.24367,0.37935
1975-11,0.14,0.17996
1975-12,0.067,0.03956
1976-01,0.214,0.32228
1976-02,0.185,0.26651
1976-03,0.442,0.7608
1976-04,0.399,0.6781
1976-05,0.258,0.40691
1976-06,0.476,0.8262
1976-07,0.351,0.58578
1976-08,0.222,0.33767
1976-09,0.031,-0.02968
1976-10,0.409,0.69733
1976-11,0.12,0.14149
1976-12,0.122,0.14534
1977-01,0.361,0.60501
1977-02,0.501,0.87428
1977-03,0.436,0.74926
1977-04,0.378,0.63771
1977-05,0.375,0.63194
1977-06,0.379,0.63963
1977-07,0.347,0.57809
1977-08,0.285,0.45884
1977-09,0.254,0.39922
1977-10,0.235,0.36267
1977-11,0.188,0.27228
1977-12,0.245,0.38191
1978-01,0.2785,0.44634
1978-02,0.312,0.51077
1978-03,0.261,0.41268
1978-04,0.259,0.40883
1978-05,0.357,0.59732
1978-06,0.436,0.74926
1978-07,0.375,0.63194
1978-08,0.152,0.20304
1978-09,0.24246,0.37702
1978-10,0.33,0.54539
1978-11,0.184,0.26458
1978-12,0.264,0.41845
1979-01,0.35,0.58386
1979-02,0.257,0.40499
1979-03,0.36,0.60309
1979-04,0.255,0.40114
1979-05,0.309,0.505
1979-06,0.31507,0.51667
1979-07,0.32093,0.52796
1979-08,0.327,0.53962
1979-09,0.27,0.42999
1979-10,0.314,0.51462
1979-11,0.295,0.47807
1979-12,0.406,0.69156
1980-01,0.33,0.54539
1980-02,0.315,0.51654
1980-03,0.379,0.63963
1980-04,0.42,0.71849
1980-05,0.375,0.63194
1980-06,0.33288,0.55093
1980-07,0.29212,0.47253
1980-08,0.25,0.39152
1980-09,0.177,0.25112
1980-10,0.18438,0.26531
1980-11,0.192,0.27997
1980-12,0.256,0.40306
1981-01,0.28,0.44922
1981-02,0.435,0.74734
1981-03,0.36,0.60309
1981-04,0.491,0.85505
1981-05,0.332,0.54924
1981-06,0.391,0.66271
1981-07,0.278,0.44538
1981-08,0.49,0.85312
1981-09,0.209,0.31267
1981-10,0.32,0.52616
1981-11,0.357,0.59732
1981-12,0.359,0.60117
1982-01,0.337,0.55885
1982-02,0.368,0.61848
1982-03,0.401,0.68195
1982-04,0.394,0.66848
1982-05,0.47564,0.8255
1982-06,0.56,0.98776
1982-07,0.315,0.51654
1982-08,0.226,0.34536
1982-09,0.23611,0.36481
1982-10,0.24589,0.38362
1982-11,0.256,0.40306
1982-12,0.471,0.81658
1983-01,0.4095,0.6983
1983-02,0.348,0.58001
1983-03,0.458,0.79158
1983-04,0.55,0.96852
1983-05,0.384,0.64925
1983-06,0.381,0.64348
1983-07,0.327,0.53962
1983-08,0.304,0.49538
1983-09,0.281,0.45115
1983-10,0.30903,0.50506
1983-11,0.338,0.56078
1983-12,0.29,0.46846
1984-01,0.4,0.68002
1984-02,0.28,0.44922
1984-03,0.45,0.77619
1984-04,0.501,0.87428
1984-05,0.27,0.42999
1984-06,0.442,0.7608
1984-07,0.486,0.84543
1984-08,0.268,0.42614
1984-09,0.481,0.83581
1984-10,0.375,0.63194
1984-11,0.29,0.46846
1984-12,0.365,0.61271
1985-01,0.44,0.75696
1985-02,0.428,0.73388
1985-03,0.484,0.84158
1985-04,0.375,0.63194
1985-05,0.457,0.78965
1985-06,0.31,0.50692
1985-07,0.394,0.66848
1985-08,0.307,0.50115
1985-09,0.3,0.48769
1985-10,0.455,0.78581
1985-11,0.452,0.78004
1985-12,0.387,0.65502
1986-01,0.32,0.52616
1986-02,0.411,0.70118
1986-03,0.55,0.96852
1986-04,0.475,0.82427
1986-05,0.644,1.14932
1986-06,0.47,0.81466
1986-07,0.421,0.72041
1986-08,0.369,0.6204
1986-09,0.387,0.65502
1986-10,0.359,0.60117
1986-11,0.435,0.74734
1986-12,0.475,0.82427
1987-01,0.362,0.60694
1987-02,0.344,0.57232
1987-03,0.32,0.52616
1987-04,0.519,0.9089
1987-05,0.384,0.64925
1987-06,0.28,0.44922
1987-07,0.46,0.79542
1987-08,0.607,1.07815
1987-09,0.39,0.66079
1987-10,0.452,0.78004
1987-11,0.4,0.68002
1987-12,0.4541,0.78407
1988-01,0.51,0.89159
1988-02,0.442,0.7608
1988-03,0.506,0.8839
1988-04,0.518,0.90698
1988-05,0.434,0.74542
1988-06,0.549,0.9666
1988-07,0.432,0.74157
1988-08,0.362,0.60694
1988-09,0.448,0.77234
1988-10,0.328,0.54154
1988-11,0.41,0.69926
1988-12,0.427,0.73195
1989-01,0.54,0.94929
1989-02,0.51741,0.90584
1989-03,0.497,0.86659
1989-04,0.57,1.00699
1989-05,0.61,1.08392
1989-06,0.529,0.92813
1989-07,0.462,0.79927
1989-08,0.3985,0.67714
1989-09,0.335,0.55501
1989-10,0.39,0.66079
1989-11,0.374,0.63002
1989-12,0.427,0.73195
1990-01,0.47,0.81466
1990-02,0.537,0.94352
1990-03,0.508,0.88774
1990-04,0.561,0.98968
1990-05,0.521,0.91275
1990-06,0.341,0.56655
1990-07,0.34002,0.56467
1990-08,0.33901,0.56272
1990-09,0.338,0.56078
1990-10,0.477,0.82812
1990-11,0.51613,0.90338
1990-12,0.554,0.97622
1991-01,0.465,0.80504
1991-02,0.628,1.11854
1991-03,0.54,0.94929
1991-04,0.509,0.88967
1991-05,0.482,0.83774
1991-06,0.39408,0.66864
1991-07,0.309,0.505
1991-08,0.33,0.54539
1991-09,0.312,0.51077
1991-10,0.294,0.47615
1991-11,0.336,0.55693
1991-12,0.416,0.7108
1992-01,0.37,0.62232
1992-02,0.204,0.30305
1992-03,0.138,0.17611
1992-04,0.425,0.72811
1992-05,0.236,0.3646
1992-06,0.31,0.50692
1992-07,0.30902,0.50504
1992-08,0.30801,0.5031
1992-09,0.307,0.50115
1992-10,0.319,0.52423
1992-11,0.22,0.33382
1992-12,0.078,0.06071
1993-01,0.468,0.81081
1993-02,0.569,1.00507
1993-03,0.439,0.75503
1993-04,0.58,1.02622
1993-05,0.58443,1.03474
1993-06,0.589,1.04353
1993-07,0.528,0.92621
1993-08,0.417,0.71272
1993-09,0.574,1.01468
1993-10,0.46,0.79542
1993-11,0.44221,0.76121
1993-12,0.425,0.72811
1994-01,0.491,0.85505
1994-02,0.481,0.83581
1994-03,0.558,0.98391
1994-04,0.717,1.28972
1994-05,0.464,0.80312
1994-06,0.428,0.73388
1994-07,0.651,1.16278
1994-08,0.49,0.85312
1994-09,0.439,0.75503
1994-10,0.44244,0.76166
1994-11,0.446,0.7685
1994-12,0.66,1.18009
1995-01,0.595,1.05507
1995-02,0.528,0.92621
1995-03,0.759,1.3705
1995-04,0.546,0.96083
1995-05,0.648,1.15701
1995-06,0.65003,1.16092
1995-07,0.652,1.1647
1995-08,0.649,1.15893
1995-09,0.509,0.88967
1995-10,0.441,0.75888
1995-11,0.546,0.96083
1995-12,0.475,0.82427
1996-01,0.716,1.2878
1996-02,0.64108,1.14371
1996-03,0.571,1.00891
1996-04,0.62,1.10316
1996-05,0.495,0.86274
1996-06,0.508,0.88774
1996-07,0.658,1.17624
1996-08,0.486,0.84543
1996-09,0.5231,0.91678
1996-10,0.559,0.98583
1996-11,0.619,1.10123
1996-12,0.601,1.06661
1997-01,0.649,1.15893
1997-02,0.57124,1.00937
1997-03,0.501,0.87428
1997-04,0.74,1.33396
1997-05,0.592,1.0493
1997-06,0.58,1.02622
1997-07,0.68,1.21856
1997-08,0.597,1.05892
1997-09,0.572,1.01084
1997-10,0.704,1.26472
1997-11,0.487,0.84735
1997-12,0.632,1.12624
1998-01,0.789,1.4282
1998-02,0.832,1.5109
1998-03,0.952,1.7417
1998-04,0.878,1.59938
1998-05,0.875,1.59361
1998-06,0.901,1.64361
1998-07,0.762,1.37627
1998-08,0.7145,1.28491
1998-09,0.667,1.19355
1998-10,0.588,1.04161
1998-11,0.917,1.67439
1998-12,0.684,1.22625
1999-01,0.581,1.02815
1999-02,0.62784,1.11824
1999-03,0.67016,1.19962
1999-04,0.717,1.28972
1999-05,0.715,1.28587
1999-06,0.58,1.02622
1999-07,0.592,1.0493
1999-08,0.605,1.07431
1999-09,0.64718,1.15543
1999-10,0.688,1.23394
1999-11,0.607,1.07815
1999-12,0.646,1.15316
2000-01,0.666,1.19163
2000-02,0.73,1.31472
2000-03,0.67,1.19932
2000-04,0.56,0.98776
2000-05,0.69,1.23779
2000-06,0.592,1.0493
2000-07,0.578,1.02238
2000-08,0.64,1.14162
2000-09,0.678,1.21471
2000-10,0.576,1.01853
2000-11,0.606,1.07623
2000-12,0.737,1.32819
2001-01,0.7995,1.44839
2001-02,0.862,1.5686
2001-03,0.718,1.29164
2001-04,0.72715,1.30924
2001-05,0.736,1.32626
2001-06,0.689,1.23587
2001-07,0.738,1.33011
2001-08,0.665,1.18971
2001-09,0.58,1.02622
2001-10,0.49,0.85312
2001-11,0.51948,0.90981
2001-12,0.548,0.96468
2002-01,0.596,1.057
2002-02,0.715,1.28587
2002-03,0.72069,1.29683
2002-04,0.727,1.30895
2002-05,0.594,1.05315
2002-06,0.709,1.27433
2002-07,0.745,1.34357
2002-08,0.577,1.02045
2002-09,0.598,1.06084
2002-10,0.604,1.07238
2002-11,0.548,0.96468
2002-12,0.682,1.2224
2003-01,0.647,1.15509
2003-02,0.716,1.2878
2003-03,0.631,1.12431
2003-04,0.675,1.20894
2003-05,0.762,1.37627
2003-06,0.658,1.17624
2003-07,0.802,1.4532
2003-08,0.608,1.08008
2003-09,0.641,1.14355
2003-10,0.692,1.24164
2003-11,0.512,0.89544
2003-12,0.504,0.88005
2004-01,0.549,0.9666
2004-02,0.798,1.44551
2004-03,0.67,1.19932
2004-04,0.67203,1.20323
2004-05,0.674,1.20702
2004-06,0.717,1.28972
2004-07,0.7652,1.38242
2004-08,0.815,1.47821
2004-09,0.802,1.4532
2004-10,0.76266,1.37753
2004-11,0.722,1.29934
2004-12,0.707,1.27049
2005-01,0.748,1.34934
2005-02,0.668,1.19548
2005-03,0.666,1.19163
2005-04,0.739,1.33203
2005-05,0.72,1.29549
2005-06,0.68,1.21856
2005-07,0.748,1.34934
2005-08,0.745,1.34357
2005-09,0.75516,1.36312
2005-10,0.765,1.38204
2005-11,0.56,0.98776
2005-12,0.658,1.17624
2006-01,0.64,1.14162
2006-02,0.577,1.02045
2006-03,0.739,1.33203
2006-04,0.744,1.34165
2006-05,0.76269,1.37759
2006-06,0.782,1.41474
2006-07,0.80659,1.46203
2006-08,0.832,1.5109
2006-09,0.764,1.38012
2006-10,0.707,1.27049
2006-11,0.65872,1.17763
2006-12,0.612,1.08777
2007-01,0.685,1.22817
2007-02,0.80375,1.45656
2007-03,0.911,1.66285
2007-04,0.892,1.6263
2007-05,0.77593,1.40307
2007-06,0.656,1.1724
2007-07,0.73,1.31472
2007-08,0.556,0.98006
2007-09,0.707,1.27049
2007-10,0.664,1.18778
2007-11,0.646,1.15316
2007-12,0.575,1.01661
2008-01,0.77,1.39166
2008-02,0.71,1.27626
2008-03,0.681,1.22048
2008-04,0.55,0.96852
2008-05,0.775,1.40127
2008-06,0.902,1.64554
2008-07,0.869,1.58207
2008-08,0.676,1.21086
2008-09,0.647,1.15509
2008-10,0.727,1.30895
2008-11,0.618,1.09931
2008-12,0.741,1.33588
2009-01,0.805,1.45897
2009-02,0.868,1.58014
2009-03,0.781,1.41281
2009-04,0.75051,1.35417
2009-05,0.721,1.29741
2009-06,0.708,1.27241
2009-07,0.73161,1.31781
2009-08,0.756,1.36473
2009-09,0.78,1.41089
2009-10,0.64,1.14162
2009-11,0.832,1.5109
2009-12,0.71,1.27626
2010-01,0.756,1.36473
2010-02,0.724,1.30318
2010-03,0.61,1.08392
2010-04,0.73959,1.33317
2010-05,0.865,1.57437
2010-06,0.767,1.38589
2010-07,0.771,1.39358
2010-08,0.78,1.41089
2010-09,0.599,1.06277
2010-10,0.677,1.21279
2010-11,0.79,1.43012
2010-12,0.646,1.15316
2011-01,0.796,1.44166
2011-02,0.69,1.23779
2011-03,0.856,1.55706
2011-04,0.82,1.48782
2011-05,0.691,1.23971
2011-06,0.897,1.63592
2011-07,0.721,1.29741
2011-08,0.691,1.23971
2011-09,0.755,1.36281
2011-10,0.825,1.49744
2011-11,0.66,1.18009
2011-12,0.766,1.38396
2012-01,0.821,1.48975
2012-02,0.83443,1.51558
2012-03,0.847,1.53975
2012-04,0.811,1.47051
2012-05,0.769,1.38973
2012-06,0.738,1.33011
2012-07,0.708,1.27241
2012-08,0.537,0.94352
2012-09,0.788,1.42628
2012-10,0.82,1.48782
2012-11,0.567,1.00122
2012-12,0.695,1.24741
2013-01,0.851,1.54745
2013-02,0.992,1.81864
2013-03,0.849,1.5436
2013-04,0.797,1.44359
2013-05,0.835,1.51667
2013-06,0.94,1.71862
2013-07,0.757,1.36665
2013-08,0.721,1.29741
2013-09,0.729,1.3128
2013-10,0.686,1.2301
2013-11,0.78,1.41089
2013-12,0.92,1.68016
2014-01,0.842,1.53014
2014-02,0.822,1.49167
2014-03,0.838,1.52244
2014-04,0.8873,1.61725
2014-05,0.935,1.70901
2014-06,0.841,1.52821
2014-07,0.809,1.46667
2014-08,1.055,1.93981
2014-09,0.806,1.4609
2014-10,0.717,1.28972
2014-11,0.751,1.35511
2014-12,0.896,1.634
2015-01,0.84,1.52629
2015-02,0.742,1.3378
2015-03,0.95,1.73786
2015-04,0.831,1.50898
2015-05,1.028,1.88788
2015-06,0.948,1.73401
2015-07,0.802,1.4532
2015-08,0.916,1.67246
2015-09,0.802,1.4532
2015-10,0.86,1.56476
2015-11,0.838,1.52244
2015-12,0.751,1.35511
2016-01,0.944,1.72632
2016-02,0.98017,1.79588
2016-03,1.014,1.86095
2016-04,1.016,1.8648
2016-05,0.967,1.77055
2016-06,1.06,1.94942
2016-07,1.167,2.15522
2016-08,0.89,1.62246
2016-09,0.96,1.75709
2016-10,0.95852,1.75425
2016-11,0.957,1.75132
2016-12,0.86749,1.57916
2017-01,0.775,1.40127
2017-02,0.92,1.68016
2017-03,0.89,1.62246
2017-04,0.9459,1.72997
2017-05,1.0,1.83402
2017-06,0.95586,1.74912
2017-07,0.91314,1.66696
2017-08,0.869,1.58207
2017-09,0.82987,1.5068
2017-10,0.792,1.43397
2017-11,0.855,1.55514
2017-12,0.824,1.49552
2018-01,0.887,1.61669
2018-02,0.86178,1.56818
2018-03,0.839,1.52437
2018-04,1.019,1.87057
2018-05,1.028,1.88788
2018-06,0.896,1.634
2018-07,0.712,1.2801
2018-08,0.809,1.46667
2018-09,0.944,1.72632
2018-10,0.83,1.50706
2018-11,0.76,1.37242
2018-12,0.822,1.49167
2019-01,0.956,1.7494
2019-02,0.958,1.75324
2019-03,0.915,1.67054
2019-04,0.91,1.66092
2019-05,0.905,1.65131
2019-06,0.846,1.53783
2019-07,1.025,1.88211
2019-08,0.846,1.53783
2019-09,0.952,1.7417
2019-10,0.971,1.77825
2019-11,0.90544,1.65216
2019-12,0.842,1.53014
2020-01,0.935,1.70901
2020-02,0.927,1.69362
2020-03,0.876,1.59553
2020-04,0.98,1.79556
2020-05,0.857,1.55899
2020-06,1.029,1.8898
2020-07,0.87,1.58399
2020-08,0.9,1.64169
2020-09,0.86951,1.58304
2020-10,0.84,1.52629
2020-11,0.919,1.67823
2020-12,0.85,1.54552
2021-01,0.987,1.80902
2021-02,0.836,1.5186
2021-03,0.97,1.77632
2021-04,1.126,2.07636
2021-05,0.886,1.61476
2021-06,0.894,1.63015
2021-07,0.90433,1.65001
2021-08,0.915,1.67054
2021-09,0.912,1.66477
2021-10,0.918,1.67631
2021-11,0.937,1.71285
2021-12,0.995,1.82441
2022-01,0.965,1.76671
2022-02,0.939,1.7167
2022-03,1.032,1.89557
2022-04,1.138,2.09944
2022-05,0.97,1.77632
2022-06,0.885,1.61284
2022-07,1.028,1.88788
2022-08,0.906,1.65323
2022-09,0.93395,1.70699
2022-10,0.961,1.75901
2022-11,0.858,1.56091
2022-12,0.91,1.66092
2023-01,1.15,2.12252
2023-02,1.19151,2.20236
2023-03,1.229,2.27446
2023-04,1.145,2.1129
2023-05,1.216,2.24946
2023-06,1.137,2.09752
2023-07,1.19,2.19945
2023-08,1.159,2.13983
2023-09,1.018,1.86864
2023-10,1.174,2.16868
2023-11,1.052,1.93404
2023-12,1.179,2.1783
2024-01,1.19,2.19945
2024-02,1.334,2.47641
2024-03,1.189,2.19753
2024-04,1.187,2.19368
2024-05,1.208,2.23407
2024-06,1.168,2.15714
2024-07,1.232,2.28023
2024-08,1.136,2.09559
2024-09,1.04,1.91096
2024-10,1.036,1.90326
2024-11,1.206,2.23023
2024-12,1.08846,2.00416
2025-01,0.967,1.77055
2025-02,0.988,1.81094
2025-03,1.027,1.88595
2025-04,1.122,2.06867
2025-05,0.949,1.73593
2025-06,1.026,1.88403
2025-07,1.061,1.95135
2025-08,0.999,1.8321
2025-09,1.00764,1.84871
2025-10,1.016,1.8648
2025-11,0.985,1.80517
2025-12,1.004,1.84172
